tau,r,phi,t,E
0.000000000000000e+00,1.019692819178290e+01,0.000000000000000e+00,0.000000000000000e+00,-1.000000000000000e-02
2.000000000000001e-02,1.019692911392931e+01,5.770487387253302e-04,2.195177269833874e-02,-1.000000224186029e-02
4.000000000000003e-02,1.019693100852877e+01,1.154097318049771e-03,4.390354506701078e-02,-1.000000684788012e-02
6.000000000000005e-02,1.019693387558028e+01,1.731145627910461e-03,6.585531687838836e-02,-1.000001381805122e-02
8.000000000000006e-02,1.019693771508261e+01,2.308193558244881e-03,8.780708790484425e-02,-1.000002315236167e-02
1.000000000000001e-01,1.019694252703412e+01,2.885240998991001e-03,1.097588579187521e-01,-1.000003485079558e-02
1.200000000000001e-01,1.019694831143277e+01,3.462287840087420e-03,1.317106266924866e-01,-1.000004891333302e-02
1.400000000000001e-01,1.019695506827609e+01,4.039333971473506e-03,1.536623939984238e-01,-1.000006533995004e-02
1.600000000000001e-01,1.019696279756122e+01,4.616379283089537e-03,1.756141596089413e-01,-1.000008413061869e-02
1.800000000000001e-01,1.019697149928485e+01,5.193423664876848e-03,1.975659232964185e-01,-1.000010528530695e-02
2.000000000000001e-01,1.019698117344328e+01,5.770467006777962e-03,2.195176848332367e-01,-1.000012880397878e-02
2.200000000000002e-01,1.019699182003239e+01,6.347509198736742e-03,2.414694439917798e-01,-1.000015468659417e-02
2.400000000000002e-01,1.019700343904765e+01,6.924550130698522e-03,2.634212005444338e-01,-1.000018293310900e-02
2.600000000000002e-01,1.019701603048411e+01,7.501589692610262e-03,2.853729542635876e-01,-1.000021354347518e-02
2.800000000000002e-01,1.019702959433642e+01,8.078627774420678e-03,3.073247049216333e-01,-1.000024651764059e-02
3.000000000000002e-01,1.019704413059879e+01,8.655664266080386e-03,3.292764522909664e-01,-1.000028185554908e-02
3.200000000000002e-01,1.019705963926504e+01,9.232699057542039e-03,3.512281961439852e-01,-1.000031955714046e-02
3.400000000000002e-01,1.019707612032857e+01,9.809732038760476e-03,3.731799362530924e-01,-1.000035962235056e-02
3.600000000000003e-01,1.019709357378236e+01,1.038676309969286e-02,3.951316723906942e-01,-1.000040205111113e-02
3.800000000000003e-01,1.019711199961897e+01,1.096379213029883e-02,4.170834043292014e-01,-1.000044684334990e-02
4.000000000000003e-01,1.019713139783057e+01,1.154081902054060e-02,4.390351318410289e-01,-1.000049399899064e-02
4.200000000000003e-01,1.019715176840890e+01,1.211784366038318e-02,4.609868546985966e-01,-1.000054351795302e-02
4.400000000000003e-01,1.019717311134529e+01,1.269486593979443e-02,4.829385726743291e-01,-1.000059540015274e-02
4.600000000000004e-01,1.019719542663064e+01,1.327188574874526e-02,5.048902855406565e-01,-1.000064964550146e-02
4.800000000000004e-01,1.019721871425546e+01,1.384890297720975e-02,5.268419930700137e-01,-1.000070625390680e-02
5.000000000000003e-01,1.019724297420984e+01,1.442591751516527e-02,5.487936950348420e-01,-1.000076522527238e-02
5.200000000000004e-01,1.019726820648345e+01,1.500292925259269e-02,5.707453912075883e-01,-1.000082655949779e-02
5.400000000000004e-01,1.019729441106554e+01,1.557993807947643e-02,5.926970813607055e-01,-1.000089025647859e-02
5.600000000000004e-01,1.019732158794497e+01,1.615694388580466e-02,6.146487652666527e-01,-1.000095631610634e-02
5.800000000000004e-01,1.019734973711015e+01,1.673394656156945e-02,6.366004426978962e-01,-1.000102473826856e-02
6.000000000000004e-01,1.019737885854913e+01,1.731094599676685e-02,6.585521134269083e-01,-1.000109552284878e-02
6.200000000000004e-01,1.019740895224948e+01,1.788794208139710e-02,6.805037772261695e-01,-1.000116866972645e-02
6.400000000000005e-01,1.019744001819841e+01,1.846493470546474e-02,7.024554338681672e-01,-1.000124417877706e-02
6.600000000000005e-01,1.019747205638269e+01,1.904192375897875e-02,7.244070831253957e-01,-1.000132204987206e-02
6.800000000000005e-01,1.019750506678869e+01,1.961890913195267e-02,7.463587247703584e-01,-1.000140228287888e-02
7.000000000000005e-01,1.019753904940234e+01,2.019589071440478e-02,7.683103585755654e-01,-1.000148487766091e-02
7.200000000000005e-01,1.019757400420920e+01,2.077286839635823e-02,7.902619843135362e-01,-1.000156983407758e-02
7.400000000000005e-01,1.019760993119438e+01,2.134984206784118e-02,8.122136017567985e-01,-1.000165715198423e-02
7.600000000000006e-01,1.019764683034258e+01,2.192681161888694e-02,8.341652106778883e-01,-1.000174683123224e-02
7.800000000000006e-01,1.019768470163812e+01,2.250377693953408e-02,8.561168108493513e-01,-1.000183887166896e-02
8.000000000000006e-01,1.019772354506485e+01,2.308073791982662e-02,8.780684020437423e-01,-1.000193327313772e-02
8.200000000000006e-01,1.019776336060626e+01,2.365769444981415e-02,9.000199840336256e-01,-1.000203003547783e-02
8.400000000000006e-01,1.019780414824540e+01,2.423464641955197e-02,9.219715565915747e-01,-1.000212915852457e-02
8.600000000000007e-01,1.019784590796491e+01,2.481159371910124e-02,9.439231194901743e-01,-1.000223064210927e-02
8.800000000000007e-01,1.019788863974701e+01,2.538853623852912e-02,9.658746725020181e-01,-1.000233448605915e-02
9.000000000000007e-01,1.019793234357352e+01,2.596547386790886e-02,9.878262153997110e-01,-1.000244069019751e-02
9.200000000000007e-01,1.019797701942584e+01,2.654240649732002e-02,1.009777747955869e+00,-1.000254925434358e-02
9.400000000000007e-01,1.019802266728497e+01,2.711933401684858e-02,1.031729269943117e+00,-1.000266017831261e-02
9.600000000000007e-01,1.019806928713146e+01,2.769625631658707e-02,1.053680781134093e+00,-1.000277346191581e-02
9.800000000000008e-01,1.019811687894549e+01,2.827317328663471e-02,1.075632281301447e+00,-1.000288910496040e-02
1.000000000000001e+00,1.019816544270680e+01,2.885008481709756e-02,1.097583770217839e+00,-1.000300710724960e-02
1.019999999999998e+00,1.019821497839472e+01,2.942699079808866e-02,1.119535247655942e+00,-1.000312746858261e-02
1.039999999999996e+00,1.019826548598819e+01,3.000389111972819e-02,1.141486713388441e+00,-1.000325018875461e-02
1.059999999999994e+00,1.019831696546570e+01,3.058078567214357e-02,1.163438167188032e+00,-1.000337526755679e-02
1.079999999999992e+00,1.019836941680535e+01,3.115767434546961e-02,1.185389608827425e+00,-1.000350270477632e-02
1.099999999999990e+00,1.019842283998483e+01,3.173455702984868e-02,1.207341038079344e+00,-1.000363250019639e-02
1.119999999999987e+00,1.019847723498140e+01,3.231143361543082e-02,1.229292454716524e+00,-1.000376465359615e-02
1.139999999999985e+00,1.019853260177192e+01,3.288830399237393e-02,1.251243858511713e+00,-1.000389916475078e-02
1.159999999999983e+00,1.019858894033284e+01,3.346516805084383e-02,1.273195249237676e+00,-1.000403603343142e-02
1.179999999999981e+00,1.019864625064018e+01,3.404202568101446e-02,1.295146626667188e+00,-1.000417525940525e-02
1.199999999999979e+00,1.019870453266956e+01,3.461887677306802e-02,1.317097990573040e+00,-1.000431684243542e-02
1.219999999999976e+00,1.019876378639619e+01,3.519572121719505e-02,1.339049340728036e+00,-1.000446078228108e-02
1.239999999999974e+00,1.019882401179486e+01,3.577255890359468e-02,1.361000676904998e+00,-1.000460707869739e-02
1.259999999999972e+00,1.019888520883995e+01,3.634938972247467e-02,1.382951998876760e+00,-1.000475573143550e-02
1.279999999999970e+00,1.019894737750542e+01,3.692621356405159e-02,1.404903306416170e+00,-1.000490674024258e-02
1.299999999999968e+00,1.019901051776483e+01,3.750303031855091e-02,1.426854599296094e+00,-1.000506010486179e-02
1.319999999999965e+00,1.019907462959133e+01,3.807983987620731e-02,1.448805877289410e+00,-1.000521582503232e-02
1.339999999999963e+00,1.019913971295764e+01,3.865664212726457e-02,1.470757140169016e+00,-1.000537390048928e-02
1.359999999999961e+00,1.019920576783607e+01,3.923343696197592e-02,1.492708387707824e+00,-1.000553433096390e-02
1.379999999999959e+00,1.019927279419854e+01,3.981022427060406e-02,1.514659619678761e+00,-1.000569711618337e-02
1.399999999999957e+00,1.019934079201653e+01,4.038700394342135e-02,1.536610835854772e+00,-1.000586225587083e-02
1.419999999999954e+00,1.019940976126112e+01,4.096377587070996e-02,1.558562036008819e+00,-1.000602974974553e-02
1.439999999999952e+00,1.019947970190299e+01,4.154053994276196e-02,1.580513219913881e+00,-1.000619959752265e-02
1.459999999999950e+00,1.019955061391238e+01,4.211729604987947e-02,1.602464387342952e+00,-1.000637179891343e-02
1.479999999999948e+00,1.019962249725915e+01,4.269404408237490e-02,1.624415538069046e+00,-1.000654635362508e-02
1.499999999999946e+00,1.019969535191271e+01,4.327078393057091e-02,1.646366671865194e+00,-1.000672326136089e-02
1.519999999999943e+00,1.019976917784209e+01,4.384751548480074e-02,1.668317788504444e+00,-1.000690252182006e-02
1.539999999999941e+00,1.019984397501590e+01,4.442423863540818e-02,1.690268887759863e+00,-1.000708413469790e-02
1.559999999999939e+00,1.019991974340232e+01,4.500095327274785e-02,1.712219969404535e+00,-1.000726809968570e-02
1.579999999999937e+00,1.019999648296915e+01,4.557765928718525e-02,1.734171033211566e+00,-1.000745441647075e-02
1.599999999999935e+00,1.020007419368375e+01,4.615435656909696e-02,1.756122078954077e+00,-1.000764308473638e-02
1.619999999999932e+00,1.020015287551308e+01,4.673104500887071e-02,1.778073106405210e+00,-1.000783410416194e-02
1.639999999999930e+00,1.020023252842369e+01,4.730772449690557e-02,1.800024115338127e+00,-1.000802747442280e-02
1.659999999999928e+00,1.020031315238171e+01,4.788439492361211e-02,1.821975105526009e+00,-1.000822319519034e-02
1.679999999999926e+00,1.020039474735288e+01,4.846105617941247e-02,1.843926076742055e+00,-1.000842126613198e-02
1.699999999999924e+00,1.020047731330250e+01,4.903770815474056e-02,1.865877028759487e+00,-1.000862168691115e-02
1.719999999999921e+00,1.020056085019546e+01,4.961435074004217e-02,1.887827961351545e+00,-1.000882445718729e-02
1.739999999999919e+00,1.020064535799627e+01,5.019098382577512e-02,1.909778874291492e+00,-1.000902957661589e-02
1.759999999999917e+00,1.020073083666899e+01,5.076760730240941e-02,1.931729767352609e+00,-1.000923704484850e-02
1.779999999999915e+00,1.020081728617730e+01,5.134422106042736e-02,1.953680640308199e+00,-1.000944686153261e-02
1.799999999999913e+00,1.020090470648445e+01,5.192082499032368e-02,1.975631492931588e+00,-1.000965902631185e-02
1.819999999999910e+00,1.020099309755328e+01,5.249741898260571e-02,1.997582324996121e+00,-1.000987353882578e-02
1.839999999999908e+00,1.020108245934624e+01,5.307400292779354e-02,2.019533136275165e+00,-1.001009039871008e-02
1.859999999999906e+00,1.020117279182533e+01,5.365057671642007e-02,2.041483926542112e+00,-1.001030960559636e-02
1.879999999999904e+00,1.020126409495217e+01,5.422714023903123e-02,2.063434695570374e+00,-1.001053115911238e-02
1.899999999999902e+00,1.020135636868795e+01,5.480369338618609e-02,2.085385443133383e+00,-1.001075505888187e-02
1.919999999999899e+00,1.020144961299348e+01,5.538023604845700e-02,2.107336169004599e+00,-1.001098130452459e-02
1.939999999999897e+00,1.020154382782912e+01,5.595676811642977e-02,2.129286872957501e+00,-1.001120989565640e-02
1.959999999999895e+00,1.020163901315485e+01,5.653328948070370e-02,2.151237554765590e+00,-1.001144083188915e-02
1.979999999999893e+00,1.020173516893022e+01,5.710980003189186e-02,2.173188214202396e+00,-1.001167411283073e-02
1.999999999999891e+00,1.020183229511437e+01,5.768629966062117e-02,2.195138851041468e+00,-1.001190973808510e-02
2.019999999999889e+00,1.020193039166604e+01,5.826278825753241e-02,2.217089465056380e+00,-1.001214770725224e-02
2.039999999999886e+00,1.020202945854355e+01,5.883926571328062e-02,2.239040056020732e+00,-1.001238801992821e-02
2.059999999999884e+00,1.020212949570483e+01,5.941573191853503e-02,2.260990623708144e+00,-1.001263067570510e-02
2.079999999999882e+00,1.020223050310737e+01,5.999218676397925e-02,2.282941167892266e+00,-1.001287567417103e-02
2.099999999999880e+00,1.020233248070827e+01,6.056863014031149e-02,2.304891688346768e+00,-1.001312301491021e-02
2.119999999999878e+00,1.020243542846421e+01,6.114506193824456e-02,2.326842184845348e+00,-1.001337269750287e-02
2.139999999999875e+00,1.020253934633146e+01,6.172148204850615e-02,2.348792657161729e+00,-1.001362472152530e-02
2.159999999999873e+00,1.020264423426589e+01,6.229789036183887e-02,2.370743105069659e+00,-1.001387908654985e-02
2.179999999999871e+00,1.020275009222295e+01,6.287428676900038e-02,2.392693528342910e+00,-1.001413579214494e-02
2.199999999999869e+00,1.020285692015768e+01,6.345067116076365e-02,2.414643926755285e+00,-1.001439483787502e-02
2.219999999999867e+00,1.020296471802472e+01,6.402704342791697e-02,2.436594300080607e+00,-1.001465622330063e-02
2.239999999999864e+00,1.020307348577829e+01,6.460340346126416e-02,2.458544648092730e+00,-1.001491994797836e-02
2.259999999999862e+00,1.020318322337221e+01,6.517975115162465e-02,2.480494970565536e+00,-1.001518601146086e-02
2.279999999999860e+00,1.020329393075987e+01,6.575608638983366e-02,2.502445267272927e+00,-1.001545441329685e-02
2.299999999999858e+00,1.020340560789428e+01,6.633240906674231e-02,2.524395537988839e+00,-1.001572515303109e-02
2.319999999999856e+00,1.020351825472802e+01,6.690871907321792e-02,2.546345782487231e+00,-1.001599823020446e-02
2.339999999999853e+00,1.020363187121326e+01,6.748501630014384e-02,2.568296000542094e+00,-1.001627364435385e-02
2.359999999999851e+00,1.020374645730177e+01,6.806130063841984e-02,2.590246191927444e+00,-1.001655139501228e-02
2.379999999999849e+00,1.020386201294492e+01,6.863757197896211e-02,2.612196356417325e+00,-1.001683148170881e-02
2.399999999999847e+00,1.020397853809365e+01,6.921383021270353e-02,2.634146493785810e+00,-1.001711390396859e-02
2.419999999999844e+00,1.020409603269848e+01,6.979007523059362e-02,2.656096603807002e+00,-1.001739866131280e-02
2.439999999999842e+00,1.020421449670957e+01,7.036630692359892e-02,2.678046686255031e+00,-1.001768575325877e-02
2.459999999999840e+00,1.020433393007663e+01,7.094252518270291e-02,2.699996740904058e+00,-1.001797517931985e-02
2.479999999999838e+00,1.020445433274897e+01,7.151872989890629e-02,2.721946767528269e+00,-1.001826693900552e-02
2.499999999999836e+00,1.020457570467549e+01,7.209492096322698e-02,2.743896765901885e+00,-1.001856103182130e-02
2.519999999999833e+00,1.020469804580470e+01,7.267109826670042e-02,2.765846735799155e+00,-1.001885745726883e-02
2.539999999999831e+00,1.020482135608467e+01,7.324726170037964e-02,2.787796676994355e+00,-1.001915621484581e-02
2.559999999999829e+00,1.020494563546309e+01,7.382341115533524e-02,2.809746589261797e+00,-1.001945730404606e-02
2.579999999999827e+00,1.020507088388723e+01,7.439954652265585e-02,2.831696472375817e+00,-1.001976072435946e-02
2.599999999999825e+00,1.020519710130395e+01,7.497566769344806e-02,2.853646326110787e+00,-1.002006647527198e-02
2.619999999999822e+00,1.020532428765969e+01,7.555177455883649e-02,2.875596150241108e+00,-1.002037455626571e-02
2.639999999999820e+00,1.020545244290051e+01,7.612786700996414e-02,2.897545944541212e+00,-1.002068496681882e-02
2.659999999999818e+00,1.020558156697205e+01,7.670394493799232e-02,2.919495708785561e+00,-1.002099770640559e-02
2.679999999999816e+00,1.020571165981953e+01,7.728000823410094e-02,2.941445442748653e+00,-1.002131277449638e-02
2.699999999999814e+00,1.020584272138777e+01,7.785605678948856e-02,2.963395146205014e+00,-1.002163017055768e-02
2.719999999999811e+00,1.020597475162119e+01,7.843209049537254e-02,2.985344818929204e+00,-1.002194989405206e-02
2.739999999999809e+00,1.020610775046380e+01,7.900810924298932e-02,3.007294460695814e+00,-1.002227194443819e-02
2.759999999999807e+00,1.020624171785919e+01,7.958411292359426e-02,3.029244071279470e+00,-1.002259632117086e-02
2.779999999999805e+00,1.020637665375056e+01,8.016010142846200e-02,3.051193650454829e+00,-1.002292302370100e-02
2.799999999999803e+00,1.020651255808069e+01,8.073607464888662e-02,3.073143197996580e+00,-1.002325205147561e-02
2.819999999999800e+00,1.020664943079196e+01,8.131203247618161e-02,3.095092713679449e+00,-1.002358340393781e-02
2.839999999999798e+00,1.020678727182633e+01,8.188797480168011e-02,3.117042197278193e+00,-1.002391708052683e-02
2.859999999999796e+00,1.020692608112537e+01,8.246390151673509e-02,3.138991648567603e+00,-1.002425308067803e-02
2.879999999999794e+00,1.020706585863023e+01,8.303981251271937e-02,3.160941067322503e+00,-1.002459140382290e-02
2.899999999999792e+00,1.020720660428167e+01,8.361570768102584e-02,3.182890453317753e+00,-1.002493204938903e-02
2.919999999999789e+00,1.020734831802002e+01,8.419158691306758e-02,3.204839806328246e+00,-1.002527501680012e-02
2.939999999999787e+00,1.020749099978522e+01,8.476745010027803e-02,3.226789126128914e+00,-1.002562030547605e-02
2.959999999999785e+00,1.020763464951680e+01,8.534329713411101e-02,3.248738412494719e+00,-1.002596791483278e-02
2.979999999999783e+00,1.020777926715387e+01,8.591912790604100e-02,3.270687665200659e+00,-1.002631784428243e-02
2.999999999999781e+00,1.020792485263517e+01,8.649494230756316e-02,3.292636884021769e+00,-1.002667009323319e-02
3.019999999999778e+00,1.020807140589899e+01,8.707074023019357e-02,3.314586068733121e+00,-1.002702466108948e-02
3.039999999999776e+00,1.020821892688324e+01,8.764652156546920e-02,3.336535219109819e+00,-1.002738154725179e-02
3.059999999999774e+00,1.020836741552541e+01,8.822228620494829e-02,3.358484334927006e+00,-1.002774075111676e-02
3.079999999999772e+00,1.020851687176261e+01,8.879803404021032e-02,3.380433415959861e+00,-1.002810227207718e-02
3.099999999999770e+00,1.020866729553151e+01,8.937376496285619e-02,3.402382461983597e+00,-1.002846610952197e-02
3.119999999999767e+00,1.020881868676839e+01,8.994947886450831e-02,3.424331472773468e+00,-1.002883226283620e-02
3.139999999999765e+00,1.020897104540913e+01,9.052517563681071e-02,3.446280448104762e+00,-1.002920073140109e-02
3.159999999999763e+00,1.020912437138920e+01,9.110085517142942e-02,3.468229387752807e+00,-1.002957151459401e-02
3.179999999999761e+00,1.020927866464366e+01,9.167651736005226e-02,3.490178291492966e+00,-1.002994461178846e-02
3.199999999999759e+00,1.020943392510715e+01,9.225216209438922e-02,3.512127159100639e+00,-1.003032002235413e-02
3.219999999999756e+00,1.020959015271396e+01,9.282778926617244e-02,3.534075990351266e+00,-1.003069774565687e-02
3.239999999999754e+00,1.020974734739792e+01,9.340339876715657e-02,3.556024785020327e+00,-1.003107778105862e-02
3.259999999999752e+00,1.020990550909246e+01,9.397899048911862e-02,3.577973542883339e+00,-1.003146012791754e-02
3.279999999999750e+00,1.021006463773063e+01,9.455456432385825e-02,3.599922263715855e+00,-1.003184478558796e-02
3.299999999999748e+00,1.021022473324507e+01,9.513012016319794e-02,3.621870947293468e+00,-1.003223175342034e-02
3.319999999999745e+00,1.021038579556800e+01,9.570565789898308e-02,3.643819593391813e+00,-1.003262103076131e-02
3.339999999999743e+00,1.021054782463124e+01,9.628117742308200e-02,3.665768201786564e+00,-1.003301261695369e-02
3.359999999999741e+00,1.021071082036621e+01,9.685667862738627e-02,3.687716772253432e+00,-1.003340651133643e-02
3.379999999999739e+00,1.021087478270394e+01,9.743216140381081e-02,3.709665304568168e+00,-1.003380271324473e-02
3.399999999999737e+00,1.021103971157502e+01,9.800762564429388e-02,3.731613798506566e+00,-1.003420122200991e-02
3.419999999999734e+00,1.021120560690968e+01,9.858307124079740e-02,3.753562253844457e+00,-1.003460203695946e-02
3.439999999999732e+00,1.021137246863770e+01,9.915849808530702e-02,3.775510670357716e+00,-1.003500515741709e-02
3.459999999999730e+00,1.021154029668849e+01,9.973390606983212e-02,3.797459047822256e+00,-1.003541058270266e-02
3.479999999999728e+00,1.021170909099104e+01,1.003092950864062e-01,3.819407386014031e+00,-1.003581831213226e-02
3.499999999999726e+00,1.021187885147396e+01,1.008846650270867e-01,3.841355684709039e+00,-1.003622834501812e-02
3.519999999999723e+00,1.021204957806543e+01,1.014600157839556e-01,3.863303943683317e+00,-1.003664068066869e-02
3.539999999999721e+00,1.021222127069322e+01,1.020353472491189e-01,3.885252162712943e+00,-1.003705531838858e-02
3.559999999999719e+00,1.021239392928473e+01,1.026106593147074e-01,3.907200341574040e+00,-1.003747225747866e-02
3.579999999999717e+00,1.021256755376693e+01,1.031859518728764e-01,3.929148480042771e+00,-1.003789149723591e-02
