tau,r,phi,t,E
0.000000000000000e+00,3.289867202105785e+01,0.000000000000000e+00,0.000000000000000e+00,-4.000000000000000e-03
9.999999999999897e+00,3.290919233400861e+01,4.618704489944941e-02,1.027212135108847e+01,-4.002187796574257e-03
2.000000000000146e+01,3.294048621107294e+01,9.231544190934587e-02,2.054403820259900e+01,-4.008674733165511e-03
3.000000000001368e+01,3.299245384073171e+01,1.383273899092897e-01,3.081554864620890e+01,-4.019378302306920e-03
3.999999999999748e+01,3.306493046410419e+01,1.841661113492814e-01,4.108645363519287e+01,-4.034163586121594e-03
4.999999999997417e+01,3.315768834929158e+01,2.297763339142319e-01,5.135655834171816e+01,-4.052846716156475e-03
5.999999999995087e+01,3.327043947864825e+01,2.751047391841218e-01,6.162567343386085e+01,-4.075199493830646e-03
6.999999999997019e+01,3.340283887839146e+01,3.201003694506201e-01,7.189361625031978e+01,-4.100954970299196e-03
8.000000000001793e+01,3.355448850561644e+01,3.647149855009238e-01,8.216021185445391e+01,-4.129813751580589e-03
9.000000000006568e+01,3.372494159718682e+01,4.089033700339508e-01,9.242529395339064e+01,-4.161450776779150e-03
1.000000000001134e+02,3.391370737840093e+01,4.526235733237763e-01,1.026887056723712e+02,-4.195522314299783e-03
1.100000000001612e+02,3.412025602675596e+01,4.958370996840458e-01,1.129503001788928e+02,-4.231672931999730e-03
1.200000000002089e+02,3.434402378737455e+01,5.385090351187078e-01,1.232099411555355e+02,-4.269542220167507e-03
1.300000000002567e+02,3.458441814127823e+01,5.806081181894712e-01,1.334675031242310e+02,-4.308771078267857e-03
1.400000000003044e+02,3.484082293513343e+01,6.221067575298069e-01,1.437228716282199e+02,-4.349007414408929e-03
1.500000000003522e+02,3.511260339074789e+01,6.629810005519426e-01,1.539759432808016e+02,-4.389911147327648e-03
1.600000000003999e+02,3.539911092376546e+01,7.032104587121329e-01,1.642266256922318e+02,-4.431158441460525e-03
1.700000000004477e+02,3.569968771302945e+01,7.427781952235993e-01,1.744748372877287e+02,-4.472445143950518e-03
1.800000000004954e+02,3.601367097438763e+01,7.816705813565681e-01,1.847205070305620e+02,-4.513489426411636e-03
1.900000000005432e+02,3.634039690475775e+01,8.198771274714132e-01,1.949635740646375e+02,-4.554033662727311e-03
2.000000000005909e+02,3.667920427361858e+01,8.573902947332140e-01,2.052039872909061e+02,-4.593845596492507e-03
2.100000000006387e+02,3.702943764947017e+01,8.942052930970639e-01,2.154417048915068e+02,-4.632718867850352e-03
2.200000000006864e+02,3.739045025795652e+01,9.303198706751510e-01,2.256766938147269e+02,-4.670472979750978e-03
2.300000000007342e+02,3.776160647616892e+01,9.657340990401998e-01,2.359089292328568e+02,-4.706952788708238e-03
2.400000000007819e+02,3.814228397410975e+01,1.000450158420594e+00,2.461383939838038e+02,-4.742027605763083e-03
2.500000000008297e+02,3.853187551941632e+01,1.034472126131788e+00,2.563650780060815e+02,-4.775589990473048e-03
2.600000000007637e+02,3.892979046529420e+01,1.067805770990397e+00,2.665889777754332e+02,-4.807554315228391e-03
2.700000000005272e+02,3.933545594433114e+01,1.100458355891220e+00,2.768100957501014e+02,-4.837855169880934e-03
2.800000000002908e+02,3.974831779255077e+01,1.132438450205834e+00,2.870284398304890e+02,-4.866445668289159e-03
2.900000000000543e+02,4.016784122890865e+01,1.163755753193841e+00,2.972440228378230e+02,-4.893295709547158e-03
2.999999999998178e+02,4.059351131553137e+01,1.194420929207215e+00,3.074568620153131e+02,-4.918390237855423e-03
3.099999999995813e+02,4.102483322354001e+01,1.224445455117135e+00,3.176669785545012e+02,-4.941727536573181e-03
3.199999999993449e+02,4.146133232838564e+01,1.253841480098142e+00,3.278743971485086e+02,-4.963317584213480e-03
3.299999999991084e+02,4.190255415737123e+01,1.282621697664187e+00,3.380791455732383e+02,-4.983180493159915e-03
3.399999999988719e+02,4.234806421054770e+01,1.310799229660114e+00,3.482812542970798e+02,-5.001345045777070e-03
3.499999999986355e+02,4.279744767456720e+01,1.338387521764881e+00,3.584807561189946e+02,-5.017847337375281e-03
3.599999999983990e+02,4.325030904735944e+01,1.365400249954801e+00,3.686776858345879e+02,-5.032729531145377e-03
3.699999999981625e+02,4.370627168978665e+01,1.391851237299376e+00,3.788720799294401e+02,-5.046038726648013e-03
3.799999999979261e+02,4.416497731875390e+01,1.417754380414862e+00,3.890639762986247e+02,-5.057825940647908e-03
3.899999999976896e+02,4.462608545460821e+01,1.443123584876014e+00,3.992534139913355e+02,-5.068145196940021e-03
3.999999999974531e+02,4.508927283413283e+01,1.467972708880034e+00,4.094404329792117e+02,-5.077052720235248e-03
4.099999999972167e+02,4.555423279899170e+01,1.492315514465159e+00,4.196250739470509e+02,-5.084606228069222e-03
4.199999999969802e+02,4.602067466814727e+01,1.516165625605808e+00,4.298073781044795e+02,-5.090864313988358e-03
4.299999999967437e+02,4.648832310156529e+01,1.539536492533319e+00,4.399873870170846e+02,-5.095885914877826e-03
4.399999999965073e+02,4.695691746140862e+01,1.562441361665667e+00,4.501651424556678e+02,-5.099729855159866e-03
4.499999999962708e+02,4.742621117593904e+01,1.584893250565659e+00,4.603406862621577e+02,-5.102454460651078e-03
4.599999999960343e+02,4.789597111046447e+01,1.606904927387477e+00,4.705140602309047e+02,-5.104117235074359e-03
4.699999999957979e+02,4.836597694888535e+01,1.628488894311243e+00,4.806853060039987e+02,-5.104774592534375e-03
4.799999999955614e+02,4.883602058871762e+01,1.649657374505378e+00,4.908544649794612e+02,-5.104481639651219e-03
4.899999999953249e+02,4.930590555186176e+01,1.670422302196537e+00,5.010215782311270e+02,-5.103292001477883e-03
4.999999999950884e+02,4.977544641288333e+01,1.690795315463761e+00,5.111866864391311e+02,-5.101257685782143e-03
5.099999999948520e+02,5.024446824611385e+01,1.710787751410512e+00,5.213498298300095e+02,-5.098428980735600e-03
5.199999999946156e+02,5.071280609250822e+01,1.730410643401637e+00,5.315110481254812e+02,-5.094854381509445e-03
5.299999999943791e+02,5.118030444686251e+01,1.749674720084590e+00,5.416703804990307e+02,-5.090580541718952e-03
5.399999999941426e+02,5.164681676573817e+01,1.768590405942883e+00,5.518278655395579e+02,-5.085652246079885e-03
5.499999999939062e+02,5.211220499619674e+01,1.787167823157857e+00,5.619835412212606e+02,-5.080112401036257e-03
5.599999999936697e+02,5.257633912526540e+01,1.805416794578952e+00,5.721374448791383e+02,-5.074002040487092e-03
5.699999999934332e+02,5.303909674990815e+01,1.823346847625808e+00,5.822896131896016e+02,-5.067360344079009e-03
5.799999999931968e+02,5.350036266713499e+01,1.840967218965754e+00,5.924400821554028e+02,-5.060224665841676e-03
5.899999999929603e+02,5.396002848380392e+01,1.858286859829304e+00,6.025888870946295e+02,-5.052630571224249e-03
5.999999999927238e+02,5.441799224557278e+01,1.875314441842471e+00,6.127360626331505e+02,-5.044611880844892e-03
6.099999999924873e+02,5.487415808441244e+01,1.892058363270547e+00,6.228816427001403e+02,-5.036200719492945e-03
6.199999999922509e+02,5.532843588404697e+01,1.908526755580646e+00,6.330256605263386e+02,-5.027427569126338e-03
6.299999999920144e+02,5.578074096265249e+01,1.924727490243080e+00,6.431681486446608e+02,-5.018321324787374e-03
6.399999999917779e+02,5.623099377213258e+01,1.940668185702057e+00,6.533091388928700e+02,-5.008909352519502e-03
6.499999999915415e+02,5.667911961327540e+01,1.956356214455565e+00,6.634486624180724e+02,-4.999217548508264e-03
6.599999999913050e+02,5.712504836610269e+01,1.971798710193213e+00,6.735867496827374e+02,-4.989270398792838e-03
6.699999999910685e+02,5.756871423471147e+01,1.987002574947914e+00,6.837234304721090e+02,-4.979091039002717e-03
6.799999999908321e+02,5.801005550593467e+01,2.001974486223983e+00,6.938587339026451e+02,-4.968701313667642e-03
6.899999999905956e+02,5.844901432115335e+01,2.016720904070145e+00,7.039926884315400e+02,-4.958121834730543e-03
6.999999999903591e+02,5.888553646060586e+01,2.031248078071002e+00,7.141253218670031e+02,-4.947372038963891e-03
7.099999999901227e+02,5.931957113956470e+01,2.045562054234715e+00,7.242566613791577e+02,-4.936470244050348e-03
7.199999999898862e+02,5.975107081577470e+01,2.059668681759151e+00,7.343867335116036e+02,-4.925433703140700e-03
7.299999999896497e+02,6.017999100755538e+01,2.073573619661716e+00,7.445155641933093e+02,-4.914278657746926e-03
7.399999999894133e+02,6.060629012201360e+01,2.087282343260851e+00,7.546431787508812e+02,-4.903020388865522e-03
7.499999999891768e+02,6.102992929281449e+01,2.100800150500555e+00,7.647696019211288e+02,-4.891673266258932e-03
7.599999999889403e+02,6.145087222700112e+01,2.114132168110793e+00,7.748948578637576e+02,-4.880250795849363e-03
7.699999999887038e+02,6.186908506036258e+01,2.127283357598624e+00,7.850189701742013e+02,-4.868765665202258e-03
7.799999999884674e+02,6.228453622088278e+01,2.140258521067097e+00,7.951419618965056e+02,-4.857229787095287e-03
7.899999999882309e+02,6.269719629982194e+01,2.153062306859747e+00,8.052638555362521e+02,-4.845654341184180e-03
7.999999999879944e+02,6.310703793000300e+01,2.165699215030095e+00,8.153846730733935e+02,-4.834049813789544e-03
8.099999999877580e+02,6.351403567090185e+01,2.178173602636376e+00,8.255044359750596e+02,-4.822426035838775e-03
8.199999999875215e+02,6.391816590015541e+01,2.190489688862752e+00,8.356231652082388e+02,-4.810792219005517e-03
8.299999999872850e+02,6.431940671112781e+01,2.202651559968793e+00,8.457408812523408e+02,-4.799156990095239e-03
8.399999999870486e+02,6.471773781619095e+01,2.214663174069925e+00,8.558576041115543e+02,-4.787528423730425e-03
8.499999999868121e+02,6.511314045539157e+01,2.226528365751550e+00,8.659733533271186e+02,-4.775914073392480e-03
8.599999999865756e+02,6.550559731020711e+01,2.238250850520404e+00,8.760881479893113e+02,-4.764321000879540e-03
8.699999999863392e+02,6.589509242208744e+01,2.249834229096771e+00,8.862020067492840e+02,-4.752755804241543e-03
8.799999999861027e+02,6.628161111551933e+01,2.261281991551553e+00,8.963149478306366e+02,-4.741224644254038e-03
8.899999999858662e+02,6.666513992535864e+01,2.272597521292205e+00,9.064269890408242e+02,-4.729733269492534e-03
8.999999999856298e+02,6.704566652817221e+01,2.283784098902030e+00,9.165381477822419e+02,-4.718287040069388e-03
9.099999999853933e+02,6.742317967737615e+01,2.294844905836761e+00,9.266484410631631e+02,-4.706890950093505e-03
9.199999999851568e+02,6.779766914194576e+01,2.305783027983395e+00,9.367578855083550e+02,-4.695549648912752e-03
9.299999999849204e+02,6.816912564849140e+01,2.316601459085196e+00,9.468664973695077e+02,-4.684267461197404e-03
9.399999999846839e+02,6.853754082652026e+01,2.327303104037667e+00,9.569742925353669e+02,-4.673048405920907e-03
9.499999999844474e+02,6.890290715668642e+01,2.337890782059597e+00,9.670812865416492e+02,-4.661896214293406e-03
9.599999999842109e+02,6.926521792187530e+01,2.348367229743797e+00,9.771874945806979e+02,-4.650814346700550e-03
9.699999999839745e+02,6.962446716094574e+01,2.358735103991591e+00,9.872929315108726e+02,-4.639806008699197e-03
9.799999999837380e+02,6.998064962499639e+01,2.368996984835259e+00,9.973976118657528e+02,-4.628874166118586e-03
9.899999999835015e+02,7.033376073600127e+01,2.379155378152721e+00,1.007501549863057e+03,-4.618021559314437e-03
9.999999999832651e+02,7.068379654768049e+01,2.389212718278500e+00,1.017604759413298e+03,-4.607250716621091e-03
1.009999999983029e+03,7.103075370849268e+01,2.399171370514630e+00,1.027707254128272e+03,-4.596563967044337e-03
1.019999999982792e+03,7.137462942661031e+01,2.409033633545429e+00,1.037809047329235e+03,-4.585963452236644e-03
1.029999999982556e+03,7.171542143678934e+01,2.418801741760050e+00,1.047910152054969e+03,-4.575451137793221e-03
1.039999999982319e+03,7.205312796900596e+01,2.428477867486096e+00,1.058010581069485e+03,-4.565028823906844e-03
1.049999999982083e+03,7.238774771877895e+01,2.438064123138083e+00,1.068110346869617e+03,-4.554698155416296e-03
1.059999999981846e+03,7.271927981906960e+01,2.447562563283562e+00,1.078209461692351e+03,-4.544460631282511e-03
1.069999999981610e+03,7.304772381368028e+01,2.456975186631036e+00,1.088307937521961e+03,-4.534317613524052e-03
1.079999999981373e+03,7.337307963207076e+01,2.466303937941872e+00,1.098405786096956e+03,-4.524270335642097e-03
1.089999999981137e+03,7.369534756550486e+01,2.475550709869905e+00,1.108503018916781e+03,-4.514319910563891e-03
1.099999999980900e+03,7.401452824445826e+01,2.484717344731215e+00,1.118599647248405e+03,-4.504467338131656e-03
1.109999999980664e+03,7.433062261722435e+01,2.493805636207145e+00,1.128695682132633e+03,-4.494713512162448e-03
1.119999999980427e+03,7.464363192964005e+01,2.502817330983168e+00,1.138791134390267e+03,-4.485059227103627e-03
1.129999999980191e+03,7.495355770588347e+01,2.511754130326201e+00,1.148886014628148e+03,-4.475505184306498e-03
1.139999999979955e+03,7.526040173027476e+01,2.520617691602667e+00,1.158980333244966e+03,-4.466051997940116e-03
1.149999999979718e+03,7.556416603003109e+01,2.529409629740208e+00,1.169074100436864e+03,-4.456700200565602e-03
1.159999999979482e+03,7.586485285892340e+01,2.538131518634680e+00,1.179167326202943e+03,-4.447450248390300e-03
1.169999999979245e+03,7.616246468178360e+01,2.546784892505156e+00,1.189260020350641e+03,-4.438302526220173e-03
1.179999999979009e+03,7.645700415982063e+01,2.555371247198825e+00,1.199352192500847e+03,-4.429257352127495e-03
1.189999999978772e+03,7.674847413669458e+01,2.563892041447888e+00,1.209443852092962e+03,-4.420314981850351e-03
1.199999999978536e+03,7.703687762532229e+01,2.572348698080333e+00,1.219535008389766e+03,-4.411475612938870e-03
1.209999999978299e+03,7.732221779535622e+01,2.580742605186441e+00,1.229625670482163e+03,-4.402739388663221e-03
1.219999999978063e+03,7.760449796131756e+01,2.589075117242950e+00,1.239715847293765e+03,-4.394106401696530e-03
1.229999999977826e+03,7.788372157133634e+01,2.597347556196509e+00,1.249805547585395e+03,-4.385576697585951e-03
1.239999999977590e+03,7.815989219647942e+01,2.605561212508022e+00,1.259894779959408e+03,-4.377150278023621e-03
1.249999999977353e+03,7.843301352062190e+01,2.613717346159512e+00,1.269983552863936e+03,-4.368827103929370e-03
1.259999999977117e+03,7.870308933083963e+01,2.621817187625000e+00,1.280071874596913e+03,-4.360607098355748e-03
1.269999999976880e+03,7.897012350829823e+01,2.629861938806827e+00,1.290159753310173e+03,-4.352490149225454e-03
1.279999999976644e+03,7.923412001960820e+01,2.637852773938860e+00,1.300247197013223e+03,-4.344476111910889e-03
1.289999999976407e+03,7.949508290862074e+01,2.645790840457916e+00,1.310334213577043e+03,-4.336564811664875e-03
1.299999999976171e+03,7.975301628864638e+01,2.653677259844516e+00,1.320420810737740e+03,-4.328756045910906e-03
1.309999999975935e+03,8.000792433507138e+01,2.661513128434463e+00,1.330506996100082e+03,-4.321049586401033e-03
1.319999999975698e+03,8.025981127834905e+01,2.669299518202024e+00,1.340592777140997e+03,-4.313445181249021e-03
1.329999999975462e+03,8.050868139735110e+01,2.677037477516401e+00,1.350678161212833e+03,-4.305942556845743e-03
1.339999999975225e+03,8.075453901305960e+01,2.684728031871903e+00,1.360763155546716e+03,-4.298541419663567e-03
1.349999999974989e+03,8.099738848257653e+01,2.692372184593272e+00,1.370847767255703e+03,-4.291241457956228e-03
1.359999999974752e+03,8.123723419344221e+01,2.699970917517291e+00,1.380932003337829e+03,-4.284042343359891e-03
1.369999999974516e+03,8.147408055824316e+01,2.707525191650864e+00,1.391015870679109e+03,-4.276943732401180e-03
1.379999999974279e+03,8.170793200949220e+01,2.715035947807541e+00,1.401099376056507e+03,-4.269945267917505e-03
1.389999999974043e+03,8.193879299477328e+01,2.722504107222249e+00,1.411182526140748e+03,-4.263046580394503e-03
1.399999999973806e+03,8.216666797213109e+01,2.729930572146116e+00,1.421265327499062e+03,-4.256247289225494e-03
1.409999999973570e+03,8.239156140569519e+01,2.737316226421275e+00,1.431347786597913e+03,-4.249547003897335e-03
1.419999999973333e+03,8.261347776152978e+01,2.744661936036937e+00,1.441429909805568e+03,-4.242945325106742e-03
1.429999999973097e+03,8.283242150369209e+01,2.751968549667363e+00,1.451511703394686e+03,-4.236441845811220e-03
1.439999999972860e+03,8.304839709049483e+01,2.759236899192313e+00,1.461593173544775e+03,-4.230036152218120e-03
1.449999999972624e+03,8.326140897095461e+01,2.766467800200902e+00,1.471674326344638e+03,-4.223727824715575e-03
1.459999999972388e+03,8.347146158142965e+01,2.773662052479080e+00,1.481755167794688e+03,-4.217516438748252e-03
1.469999999972151e+03,8.367855934242029e+01,2.780820440481801e+00,1.491835703809249e+03,-4.211401565641530e-03
1.479999999971915e+03,8.388270665553858e+01,2.787943733790192e+00,1.501915940218817e+03,-4.205382773376619e-03
1.489999999971678e+03,8.408390790063592e+01,2.795032687554426e+00,1.511995882772174e+03,-4.199459627319491e-03
1.499999999971442e+03,8.428216743306405e+01,2.802088042922771e+00,1.522075537138570e+03,-4.193631690906724e-03
1.509999999971205e+03,8.447748958109851e+01,2.809110527457363e+00,1.532154908909789e+03,-4.187898526289648e-03
1.519999999970969e+03,8.466987864347263e+01,2.816100855537226e+00,1.542234003602136e+03,-4.182259694940490e-03
1.529999999970732e+03,8.485933888705368e+01,2.823059728749050e+00,1.552312826658359e+03,-4.176714758221529e-03
1.539999999970496e+03,8.504587454463109e+01,2.829987836265988e+00,1.562391383449677e+03,-4.171263277920094e-03
1.549999999970259e+03,8.522948981281924e+01,2.836885855215201e+00,1.572469679277561e+03,-4.165904816751073e-03
1.559999999970023e+03,8.541018885007475e+01,2.843754451034499e+00,1.582547719375582e+03,-4.160638938828650e-03
1.569999999969786e+03,8.558797577480799e+01,2.850594277818242e+00,1.592625508911235e+03,-4.155465210109417e-03
1.579999999969550e+03,8.576285466359985e+01,2.857405978653310e+00,1.602703052987542e+03,-4.150383198808080e-03
1.589999999969313e+03,8.593482954950646e+01,2.864190185945163e+00,1.612780356644947e+03,-4.145392475787625e-03
1.599999999969077e+03,8.610390442045313e+01,2.870947521734551e+00,1.622857424862817e+03,-4.140492614925294e-03
1.609999999968840e+03,8.627008321771636e+01,2.877678598005185e+00,1.632934262561121e+03,-4.135683193455616e-03
1.619999999968604e+03,8.643336983447907e+01,2.884384016982563e+00,1.643010874601996e+03,-4.130963792292155e-03
1.629999999968368e+03,8.659376811446705e+01,2.891064371424679e+00,1.653087265791312e+03,-4.126333996328827e-03
1.639999999968131e+03,8.675128185065374e+01,2.897720244904270e+00,1.663163440880166e+03,-4.121793394722240e-03
1.649999999967895e+03,8.690591478403762e+01,2.904352212083693e+00,1.673239404566353e+03,-4.117341581155939e-03
1.659999999967658e+03,8.705767060247700e+01,2.910960838981934e+00,1.683315161495841e+03,-4.112978154087907e-03
1.669999999967422e+03,8.720655293959575e+01,2.917546683234641e+00,1.693390716264114e+03,-4.108702716981856e-03
1.679999999967185e+03,8.735256537374114e+01,2.924110294347213e+00,1.703466073417646e+03,-4.104514878523681e-03
1.689999999966949e+03,8.749571142699895e+01,2.930652213941059e+00,1.713541237455175e+03,-4.100414252823701e-03
1.699999999966712e+03,8.763599456426529e+01,2.937172975993450e+00,1.723616212829087e+03,-4.096400459605496e-03
1.709999999966476e+03,8.777341819236160e+01,2.943673107071309e+00,1.733691003946660e+03,-4.092473124382391e-03
1.719999999966239e+03,8.790798565920379e+01,2.950153126558865e+00,1.743765615171387e+03,-4.088631878621973e-03
1.729999999966003e+03,8.803970025301098e+01,2.956613546879614e+00,1.753840050824167e+03,-4.084876359899674e-03
1.739999999965766e+03,8.816856520156544e+01,2.963054873712835e+00,1.763914315184550e+03,-4.081206212041688e-03
1.749999999965530e+03,8.829458367150383e+01,2.969477606204699e+00,1.773988412491927e+03,-4.077621085258357e-03
1.759999999965293e+03,8.841775876765182e+01,2.975882237174178e+00,1.784062346946719e+03,-4.074120636268203e-03
1.769999999965057e+03,8.853809353240025e+01,2.982269253314205e+00,1.794136122711472e+03,-4.070704528413175e-03
1.779999999964821e+03,8.865559094510805e+01,2.988639135387958e+00,1.804209743912049e+03,-4.067372431765989e-03
1.789999999964584e+03,8.877025392154100e+01,2.994992358420601e+00,1.814283214638717e+03,-4.064124023229771e-03
